depth,temp,chla,do,sal,ph
2.001,21.8416015562,0.115465912362,9.35697456121,0.0562743819181,8.88975566958
2.501,21.8145934544,0.124968523812,9.3605066746,0.0534950162529,8.9030077272
3.001,21.7876974516,0.127587171016,9.36184142678,0.0519338452157,8.92161624443
3.501,21.7639168994,0.129271146769,9.36204495832,0.0506597218446,8.94131093979
4.001,21.7385961885,0.126634132897,9.35170989077,0.0507730074139,8.9106671933
4.501,21.7169609274,0.119880117967,9.34663780662,0.0510205188132,8.88047284206
5.001,21.6990974422,0.117156452651,9.33901943658,0.0512056005265,8.85430705853
5.501,21.686069411,0.111035783932,9.33148873284,0.0512744737656,8.84028581344
6.001,21.6278524658,0.110163729452,9.30227200437,0.0516914909009,8.7679955795
6.501,21.5775972379,0.11228101685,9.27992722825,0.0516619877815,8.75349796353
7.001,21.4972636016,0.120361585537,9.24632709382,0.0515308134591,8.74551395927
7.501,21.3601540206,0.134902999902,9.1905260255,0.0508010977955,8.79389015864
8.001,21.136397034,0.149190053283,9.11029875609,0.0507578060452,8.75395250067
8.501,20.7595332296,0.161372430779,9.01120068328,0.0516077282356,8.58271073718
9.001,20.2294770344,0.17656859673,8.9070774279,0.0523520306654,8.3899073967
9.501,19.7095802152,0.1855090785,8.81838438367,0.0512236784463,8.33078481247
10.001,19.1237124314,0.19413551144,8.72997901084,0.0500479384915,8.23004578448
10.501,18.5070171255,0.197011772775,8.65621019356,0.0504825281089,8.0475161563
11.001,17.979427301,0.202102721969,8.61403155813,0.050297031749,7.93153869503
11.501,17.5513146469,0.206347117017,8.58501197974,0.0490722281829,7.90456098013
12.001,17.228355035,0.213414520186,8.56889571566,0.0491090409115,7.8891220763
12.501,16.9861455509,0.211562768778,8.5545864206,0.0501769525872,7.81674347825
13.001,16.7601508018,0.216025470183,8.53925067517,0.0507533456197,7.7494843783
13.501,16.5871824437,0.216583197884,8.5255901625,0.0504908806147,7.7233232674
14.001,16.4811937729,0.213145595471,8.52213793033,0.0484628100864,7.80198542342
14.501,16.3649476048,0.207535384687,8.52112117713,0.0467454785699,7.84646118299
15.001,16.2526583646,0.20208850669,8.51704976546,0.0464380838925,7.79442567426
15.501,16.1782522159,0.188695817455,8.51418970111,0.0442098943027,7.84907026052
16.001,16.1044922552,0.175733189376,8.50893624467,0.0423190050423,7.88829501478
16.501,16.0033192401,0.152106399669,8.50103635389,0.043406718237,7.76375751556
17.001,15.91031106,0.1311481784,8.48872709769,0.0441254118567,7.67565894574
17.501,15.8181124525,0.111830659794,8.46915949243,0.0449436635998,7.58246274529
18.001,15.7399016755,0.0937444234948,8.45353559678,0.0455522469679,7.51940025615
18.501,15.6727488496,0.0775457727721,8.44379537286,0.045013850107,7.53674503009
19.001,15.5991834547,0.0653711381614,8.43033091329,0.0445975201593,7.53682665327
19.501,15.5154467082,0.0576363235832,8.41446981663,0.0451197249372,7.4917224373
20.001,15.4524584853,0.050400579941,8.40961322469,0.0439280468144,7.55030210643
20.501,15.3943597694,0.0440340753653,8.40186568409,0.0431855560281,7.57677630297
21.001,15.3241708235,0.0377654668394,8.39187470496,0.043167485266,7.57301931942
21.501,15.2542207459,0.0315507641904,8.37983360306,0.0433493798023,7.54861274823
22.001,15.1718514111,0.0267313356896,8.36865266195,0.0445046296366,7.47738139584
22.501,15.098973172,0.0221265723887,8.36017271503,0.0450688808645,7.43861525007
23.001,15.0369185394,0.018228930123,8.35297455298,0.044700116752,7.4457145086
23.501,14.9467194416,0.0175309106944,8.34061888258,0.0447323180325,7.42428622507
24.001,14.8471839041,0.0141782468003,8.33583029393,0.0454178686255,7.37991850924
24.501,14.771344032,0.0143477157452,8.33313632147,0.0443466703519,7.41231480832
25.001,14.6630094277,0.0125862763721,8.33439395562,0.0438448638867,7.41749391029
25.501,14.5726188776,0.0144489569826,8.34026467648,0.043720983463,7.41491709273
26.001,14.4804880128,0.0155228615015,8.34450383017,0.0440075763328,7.39063973341
26.501,14.3973151348,0.0156780119233,8.34628470985,0.043987230487,7.37955749128
27.001,14.3212089732,0.0147441293018,8.34796854941,0.0449965452581,7.32515158746
27.501,14.2455711362,0.0156508318822,8.34710373477,0.0451086369804,7.30445716491
28.001,14.1657338752,0.0145528733824,8.34792758065,0.0453416978485,7.28273932561
28.501,14.0907426493,0.0149760018629,8.34460470475,0.0462062782841,7.23033725178
29.001,14.0111903333,0.0119713256333,8.34639332377,0.0456123877753,7.23962718157
29.501,13.9373600891,0.0107223768092,8.35414530664,0.0450367154245,7.25534821443
30.001,13.8496324895,0.0115749842305,8.37367838812,0.0450792283823,7.24346029517
30.501,13.7438659364,0.0110132063733,8.39365143286,0.043872289984,7.23734303116
31.001,13.6625568533,0.0100651424306,8.41244347355,0.0428865697056,7.2579485027
31.501,13.5563648495,0.0115176814829,8.4372966481,0.0425087665129,7.25540540172
32.001,13.4384838941,0.013667416129,8.43943298281,0.041275170902,7.24831298941
32.501,13.2867779465,0.0167990901299,8.42452353091,0.0407645093523,7.19953579686
33.001,13.1617544012,0.0187102751921,8.41690572492,0.0405790891747,7.18404056324
33.501,13.0277984394,0.0173277724267,8.38315625478,0.04,7.15182085422
34.001,12.8848518597,0.0174600481026,8.33814337158,0.04,7.12699859574
34.501,12.7391466878,0.0156997136061,8.30904497751,0.04,7.10734503449
35.001,12.5991253425,0.0135528422352,8.26362483388,0.04,7.06461321393
35.501,12.4569952709,0.0114203676644,8.22879282886,0.04,7.06835379476
36.001,12.3403369221,0.00961437336546,8.20763600285,0.04,7.09978364309
36.501,12.1829921084,0.0105531839575,8.16408649928,0.04,7.07036978653
37.001,12.0489000008,0.0118940286759,8.13312212344,0.04,7.07775094745
37.501,11.9469225899,0.011116176283,8.11477037189,0.04,7.11044330019
38.001,11.8252778206,0.0116192645045,8.08038909404,0.04,7.10350874071
